 Incident particle is a Tau with M = 1776.82000 MeV
 Index = 2: Air
      Absorber with <Z/A> = 0.49919
 Sternheimer coef:  a     k=m_s   x_0    x_1    I[eV]   Cbar  delta0
                 0.1091  3.3994  1.7418  4.2759   85.7 10.5961 0.00

 *** Table generated with PUMAS v0.8 ***

      T         p     Ionization  brems     pair     photonuc  Radloss    dE/dx   CSDA Range  delta   beta
    [MeV]    [MeV/c]  -----------------------[MeV cm^2/g]------------------------  [g/cm^2]
  1.000E+05 1.018E+05 2.536E+00 1.450E-04 2.253E-03 8.298E-03 1.070E-02 2.547E+00 1.963E+04  0.0181 0.99985
  1.122E+05 1.140E+05 2.566E+00 1.675E-04 2.718E-03 9.369E-03 1.225E-02 2.579E+00 2.439E+04  0.0812 0.99988
  1.259E+05 1.277E+05 2.596E+00 1.934E-04 3.266E-03 1.052E-02 1.398E-02 2.610E+00 2.967E+04  0.1521 0.99990
  1.413E+05 1.430E+05 2.626E+00 2.232E-04 3.913E-03 1.182E-02 1.595E-02 2.642E+00 3.552E+04  0.2306 0.99992
  1.585E+05 1.603E+05 2.655E+00 2.575E-04 4.673E-03 1.327E-02 1.820E-02 2.673E+00 4.201E+04  0.3165 0.99994
  1.778E+05 1.796E+05 2.683E+00 2.969E-04 5.565E-03 1.489E-02 2.075E-02 2.704E+00 4.920E+04  0.4095 0.99995
  1.995E+05 2.013E+05 2.711E+00 3.422E-04 6.609E-03 1.674E-02 2.369E-02 2.735E+00 5.718E+04  0.5095 0.99996
  2.239E+05 2.256E+05 2.738E+00 3.942E-04 7.830E-03 1.876E-02 2.698E-02 2.765E+00 6.603E+04  0.6163 0.99997
  2.512E+05 2.530E+05 2.765E+00 4.539E-04 9.254E-03 2.102E-02 3.073E-02 2.796E+00 7.586E+04  0.7297 0.99998
  2.818E+05 2.836E+05 2.792E+00 5.225E-04 1.091E-02 2.357E-02 3.500E-02 2.827E+00 8.676E+04  0.8495 0.99998
  3.162E+05 3.180E+05 2.818E+00 6.011E-04 1.284E-02 2.645E-02 3.989E-02 2.858E+00 9.886E+04  0.9754 0.99998
  3.548E+05 3.566E+05 2.844E+00 6.913E-04 1.508E-02 2.968E-02 4.545E-02 2.889E+00 1.123E+05  1.1073 0.99999
  3.981E+05 3.999E+05 2.869E+00 7.946E-04 1.767E-02 3.329E-02 5.175E-02 2.920E+00 1.272E+05  1.2450 0.99999
  4.467E+05 4.485E+05 2.893E+00 9.131E-04 2.067E-02 3.733E-02 5.891E-02 2.952E+00 1.437E+05  1.3883 0.99999
  5.012E+05 5.030E+05 2.918E+00 1.049E-03 2.413E-02 4.188E-02 6.707E-02 2.985E+00 1.621E+05  1.5370 0.99999
  5.623E+05 5.641E+05 2.941E+00 1.204E-03 2.813E-02 4.681E-02 7.615E-02 3.018E+00 1.825E+05  1.6908 1.00000
  6.310E+05 6.327E+05 2.965E+00 1.382E-03 3.274E-02 5.237E-02 8.650E-02 3.051E+00 2.051E+05  1.8497 1.00000
  7.079E+05 7.097E+05 2.988E+00 1.586E-03 3.805E-02 5.864E-02 9.828E-02 3.086E+00 2.302E+05  2.0133 1.00000
  7.943E+05 7.961E+05 3.010E+00 1.819E-03 4.415E-02 6.572E-02 1.117E-01 3.122E+00 2.580E+05  2.1815 1.00000
  8.913E+05 8.930E+05 3.033E+00 2.086E-03 5.115E-02 7.373E-02 1.270E-01 3.160E+00 2.889E+05  2.3542 1.00000
  1.000E+06 1.002E+06 3.054E+00 2.391E-03 5.919E-02 8.278E-02 1.444E-01 3.199E+00 3.231E+05  2.5310 1.00000
  1.122E+06 1.124E+06 3.076E+00 2.740E-03 6.839E-02 9.302E-02 1.642E-01 3.240E+00 3.610E+05  2.7119 1.00000
  1.259E+06 1.261E+06 3.097E+00 3.139E-03 7.893E-02 1.046E-01 1.867E-01 3.283E+00 4.030E+05  2.8967 1.00000
  1.413E+06 1.414E+06 3.117E+00 3.596E-03 9.097E-02 1.178E-01 2.123E-01 3.330E+00 4.494E+05  3.0851 1.00000
  1.585E+06 1.587E+06 3.138E+00 4.117E-03 1.047E-01 1.327E-01 2.415E-01 3.379E+00 5.008E+05  3.2771 1.00000
  1.778E+06 1.780E+06 3.157E+00 4.712E-03 1.204E-01 1.496E-01 2.747E-01 3.432E+00 5.576E+05  3.4723 1.00000
  1.995E+06 1.997E+06 3.177E+00 5.392E-03 1.383E-01 1.688E-01 3.125E-01 3.489E+00 6.203E+05  3.6707 1.00000
  2.239E+06 2.240E+06 3.196E+00 6.169E-03 1.587E-01 1.906E-01 3.555E-01 3.552E+00 6.894E+05  3.8720 1.00000
  2.512E+06 2.514E+06 3.215E+00 7.055E-03 1.819E-01 2.154E-01 4.043E-01 3.619E+00 7.656E+05  4.0762 1.00000
  2.818E+06 2.820E+06 3.233E+00 8.067E-03 2.083E-01 2.435E-01 4.599E-01 3.693E+00 8.495E+05  4.2830 1.00000
  3.162E+06 3.164E+06 3.251E+00 9.222E-03 2.382E-01 2.755E-01 5.230E-01 3.774E+00 9.416E+05  4.4922 1.00000
  3.548E+06 3.550E+06 3.269E+00 1.054E-02 2.722E-01 3.120E-01 5.947E-01 3.864E+00 1.043E+06  4.7038 1.00000
  3.981E+06 3.983E+06 3.287E+00 1.204E-02 3.108E-01 3.534E-01 6.762E-01 3.963E+00 1.153E+06  4.9176 1.00000
  4.467E+06 4.469E+06 3.304E+00 1.375E-02 3.545E-01 4.005E-01 7.688E-01 4.072E+00 1.274E+06  5.1333 1.00000
  5.012E+06 5.014E+06 3.320E+00 1.571E-02 4.040E-01 4.542E-01 8.739E-01 4.194E+00 1.406E+06  5.3509 1.00000
  5.623E+06 5.625E+06 3.337E+00 1.793E-02 4.600E-01 5.153E-01 9.933E-01 4.330E+00 1.550E+06  5.5702 1.00000
  6.310E+06 6.311E+06 3.353E+00 2.046E-02 5.234E-01 5.849E-01 1.129E+00 4.482E+00 1.705E+06  5.7911 1.00000
  7.079E+06 7.081E+06 3.369E+00 2.335E-02 5.951E-01 6.642E-01 1.283E+00 4.652E+00 1.874E+06  6.0134 1.00000
  7.943E+06 7.945E+06 3.385E+00 2.664E-02 6.761E-01 7.546E-01 1.457E+00 4.842E+00 2.056E+06  6.2370 1.00000
  8.913E+06 8.914E+06 3.400E+00 3.038E-02 7.676E-01 8.575E-01 1.655E+00 5.056E+00 2.252E+06  6.4617 1.00000
  1.000E+07 1.000E+07 3.416E+00 3.464E-02 8.708E-01 9.749E-01 1.880E+00 5.296E+00 2.462E+06  6.6875 1.00000
  1.122E+07 1.122E+07 3.431E+00 3.948E-02 9.873E-01 1.109E+00 2.135E+00 5.566E+00 2.687E+06  6.9142 1.00000
  1.259E+07 1.259E+07 3.446E+00 4.499E-02 1.119E+00 1.261E+00 2.425E+00 5.871E+00 2.927E+06  7.1417 1.00000
  1.413E+07 1.413E+07 3.460E+00 5.126E-02 1.267E+00 1.435E+00 2.753E+00 6.214E+00 3.181E+06  7.3699 1.00000
  1.585E+07 1.585E+07 3.475E+00 5.838E-02 1.434E+00 1.633E+00 3.126E+00 6.601E+00 3.450E+06  7.5986 1.00000
  1.778E+07 1.778E+07 3.489E+00 6.647E-02 1.622E+00 1.860E+00 3.548E+00 7.037E+00 3.734E+06  7.8278 1.00000
  1.995E+07 1.995E+07 3.504E+00 7.566E-02 1.834E+00 2.118E+00 4.027E+00 7.531E+00 4.032E+06  8.0573 1.00000
  2.239E+07 2.239E+07 3.518E+00 8.610E-02 2.072E+00 2.412E+00 4.570E+00 8.088E+00 4.345E+06  8.2872 1.00000
  2.512E+07 2.512E+07 3.532E+00 9.796E-02 2.341E+00 2.748E+00 5.187E+00 8.718E+00 4.670E+06  8.5172 1.00000
  2.818E+07 2.819E+07 3.546E+00 1.114E-01 2.642E+00 3.131E+00 5.885E+00 9.431E+00 5.008E+06  8.7474 1.00000
  3.162E+07 3.162E+07 3.560E+00 1.267E-01 2.982E+00 3.569E+00 6.678E+00 1.024E+01 5.359E+06  8.9776 1.00000
  3.548E+07 3.548E+07 3.574E+00 1.440E-01 3.364E+00 4.068E+00 7.576E+00 1.115E+01 5.720E+06  9.2079 1.00000
  3.981E+07 3.981E+07 3.588E+00 1.636E-01 3.794E+00 4.638E+00 8.595E+00 1.218E+01 6.092E+06  9.4381 1.00000
  4.467E+07 4.467E+07 3.602E+00 1.859E-01 4.277E+00 5.288E+00 9.751E+00 1.335E+01 6.473E+06  9.6684 1.00000
  5.012E+07 5.012E+07 3.616E+00 2.111E-01 4.820E+00 6.030E+00 1.106E+01 1.468E+01 6.863E+06  9.8986 1.00000
  5.623E+07 5.624E+07 3.629E+00 2.397E-01 5.430E+00 6.878E+00 1.255E+01 1.618E+01 7.260E+06 10.1289 1.00000
  6.310E+07 6.310E+07 3.643E+00 2.721E-01 6.115E+00 7.845E+00 1.423E+01 1.788E+01 7.664E+06 10.3591 1.00000
  7.079E+07 7.080E+07 3.657E+00 3.088E-01 6.885E+00 8.950E+00 1.614E+01 1.980E+01 8.074E+06 10.5894 1.00000
  7.943E+07 7.943E+07 3.671E+00 3.503E-01 7.750E+00 1.021E+01 1.831E+01 2.198E+01 8.489E+06 10.8196 1.00000
  8.913E+07 8.913E+07 3.685E+00 3.973E-01 8.722E+00 1.165E+01 2.077E+01 2.446E+01 8.907E+06 11.0499 1.00000
  1.000E+08 1.000E+08 3.699E+00 4.504E-01 9.813E+00 1.330E+01 2.356E+01 2.726E+01 9.329E+06 11.2801 1.00000
  1.122E+08 1.122E+08 3.713E+00 5.105E-01 1.104E+01 1.517E+01 2.672E+01 3.044E+01 9.753E+06 11.5104 1.00000
  1.259E+08 1.259E+08 3.727E+00 5.785E-01 1.241E+01 1.732E+01 3.031E+01 3.404E+01 1.018E+07 11.7406 1.00000
  1.413E+08 1.413E+08 3.741E+00 6.553E-01 1.396E+01 1.977E+01 3.438E+01 3.813E+01 1.061E+07 11.9709 1.00000
  1.585E+08 1.585E+08 3.755E+00 7.422E-01 1.569E+01 2.257E+01 3.900E+01 4.276E+01 1.103E+07 12.2012 1.00000
  1.778E+08 1.778E+08 3.769E+00 8.403E-01 1.764E+01 2.576E+01 4.425E+01 4.802E+01 1.146E+07 12.4314 1.00000
  1.995E+08 1.995E+08 3.783E+00 9.511E-01 1.983E+01 2.942E+01 5.020E+01 5.398E+01 1.189E+07 12.6617 1.00000
  2.239E+08 2.239E+08 3.797E+00 1.076E+00 2.228E+01 3.359E+01 5.695E+01 6.075E+01 1.231E+07 12.8919 1.00000
  2.512E+08 2.512E+08 3.812E+00 1.217E+00 2.504E+01 3.836E+01 6.461E+01 6.842E+01 1.274E+07 13.1222 1.00000
  2.818E+08 2.818E+08 3.826E+00 1.377E+00 2.813E+01 4.380E+01 7.331E+01 7.713E+01 1.316E+07 13.3524 1.00000
  3.162E+08 3.162E+08 3.841E+00 1.557E+00 3.160E+01 5.002E+01 8.318E+01 8.702E+01 1.358E+07 13.5827 1.00000
  3.548E+08 3.548E+08 3.855E+00 1.759E+00 3.550E+01 5.713E+01 9.439E+01 9.824E+01 1.400E+07 13.8130 1.00000
  3.981E+08 3.981E+08 3.870E+00 1.988E+00 3.987E+01 6.526E+01 1.071E+02 1.110E+02 1.442E+07 14.0432 1.00000
  4.467E+08 4.467E+08 3.884E+00 2.246E+00 4.477E+01 7.455E+01 1.216E+02 1.254E+02 1.483E+07 14.2735 1.00000
  5.012E+08 5.012E+08 3.899E+00 2.537E+00 5.028E+01 8.516E+01 1.380E+02 1.419E+02 1.524E+07 14.5037 1.00000
  5.623E+08 5.623E+08 3.914E+00 2.864E+00 5.646E+01 9.729E+01 1.566E+02 1.605E+02 1.564E+07 14.7340 1.00000
  6.310E+08 6.310E+08 3.928E+00 3.233E+00 6.339E+01 1.111E+02 1.778E+02 1.817E+02 1.605E+07 14.9642 1.00000
  7.079E+08 7.079E+08 3.943E+00 3.649E+00 7.117E+01 1.270E+02 2.018E+02 2.058E+02 1.644E+07 15.1945 1.00000
  7.943E+08 7.943E+08 3.958E+00 4.117E+00 7.991E+01 1.451E+02 2.291E+02 2.331E+02 1.684E+07 15.4248 1.00000
  8.913E+08 8.913E+08 3.973E+00 4.644E+00 8.971E+01 1.658E+02 2.602E+02 2.641E+02 1.723E+07 15.6550 1.00000
  1.000E+09 1.000E+09 3.988E+00 5.238E+00 1.007E+02 1.895E+02 2.954E+02 2.994E+02 1.762E+07 15.8853 1.00000
  1.122E+09 1.122E+09 4.004E+00 5.906E+00 1.130E+02 2.166E+02 3.355E+02 3.395E+02 1.800E+07 16.1155 1.00000
  1.259E+09 1.259E+09 4.019E+00 6.657E+00 1.269E+02 2.475E+02 3.810E+02 3.851E+02 1.838E+07 16.3458 1.00000
  1.413E+09 1.413E+09 4.034E+00 7.503E+00 1.424E+02 2.829E+02 4.328E+02 4.368E+02 1.876E+07 16.5760 1.00000
  1.585E+09 1.585E+09 4.050E+00 8.454E+00 1.599E+02 3.233E+02 4.916E+02 4.957E+02 1.913E+07 16.8063 1.00000
  1.778E+09 1.778E+09 4.065E+00 9.524E+00 1.794E+02 3.696E+02 5.585E+02 5.626E+02 1.950E+07 17.0366 1.00000
  1.995E+09 1.995E+09 4.081E+00 1.073E+01 2.014E+02 4.225E+02 6.346E+02 6.387E+02 1.986E+07 17.2668 1.00000
  2.239E+09 2.239E+09 4.097E+00 1.208E+01 2.260E+02 4.830E+02 7.211E+02 7.252E+02 2.022E+07 17.4971 1.00000
  2.512E+09 2.512E+09 4.113E+00 1.360E+01 2.536E+02 5.522E+02 8.194E+02 8.235E+02 2.057E+07 17.7273 1.00000
  2.818E+09 2.818E+09 4.128E+00 1.531E+01 2.846E+02 6.313E+02 9.313E+02 9.354E+02 2.092E+07 17.9576 1.00000
  3.162E+09 3.162E+09 4.144E+00 1.723E+01 3.194E+02 7.219E+02 1.059E+03 1.063E+03 2.127E+07 18.1879 1.00000
  3.548E+09 3.548E+09 4.160E+00 1.939E+01 3.585E+02 8.254E+02 1.203E+03 1.207E+03 2.161E+07 18.4181 1.00000
  3.981E+09 3.981E+09 4.177E+00 2.182E+01 4.023E+02 9.438E+02 1.368E+03 1.372E+03 2.194E+07 18.6484 1.00000
  4.467E+09 4.467E+09 4.193E+00 2.455E+01 4.514E+02 1.079E+03 1.555E+03 1.559E+03 2.228E+07 18.8786 1.00000
  5.012E+09 5.012E+09 4.209E+00 2.761E+01 5.065E+02 1.234E+03 1.769E+03 1.773E+03 2.261E+07 19.1089 1.00000
  5.623E+09 5.623E+09 4.226E+00 3.105E+01 5.684E+02 1.412E+03 2.011E+03 2.015E+03 2.293E+07 19.3391 1.00000
  6.310E+09 6.310E+09 4.242E+00 3.492E+01 6.378E+02 1.615E+03 2.287E+03 2.292E+03 2.325E+07 19.5694 1.00000
  7.079E+09 7.079E+09 4.259E+00 3.926E+01 7.157E+02 1.847E+03 2.602E+03 2.606E+03 2.357E+07 19.7997 1.00000
  7.943E+09 7.943E+09 4.275E+00 4.414E+01 8.031E+02 2.113E+03 2.960E+03 2.964E+03 2.388E+07 20.0299 1.00000
  8.913E+09 8.913E+09 4.292E+00 4.962E+01 9.012E+02 2.417E+03 3.367E+03 3.372E+03 2.418E+07 20.2602 1.00000
  1.000E+10 1.000E+10 4.309E+00 5.577E+01 1.011E+03 2.765E+03 3.832E+03 3.836E+03 2.449E+07 20.4904 1.00000
  1.122E+10 1.122E+10 4.326E+00 6.268E+01 1.135E+03 3.163E+03 4.360E+03 4.365E+03 2.479E+07 20.7207 1.00000
  1.259E+10 1.259E+10 4.343E+00 7.043E+01 1.273E+03 3.619E+03 4.962E+03 4.967E+03 2.508E+07 20.9510 1.00000
  1.413E+10 1.413E+10 4.360E+00 7.914E+01 1.429E+03 4.140E+03 5.648E+03 5.652E+03 2.537E+07 21.1812 1.00000
  1.585E+10 1.585E+10 4.378E+00 8.891E+01 1.603E+03 4.738E+03 6.429E+03 6.434E+03 2.566E+07 21.4115 1.00000
  1.778E+10 1.778E+10 4.395E+00 9.988E+01 1.799E+03 5.421E+03 7.320E+03 7.324E+03 2.594E+07 21.6417 1.00000
  1.995E+10 1.995E+10 4.413E+00 1.122E+02 2.018E+03 6.204E+03 8.334E+03 8.338E+03 2.622E+07 21.8720 1.00000
  2.239E+10 2.239E+10 4.430E+00 1.260E+02 2.264E+03 7.099E+03 9.490E+03 9.494E+03 2.649E+07 22.1023 1.00000
  2.512E+10 2.512E+10 4.448E+00 1.415E+02 2.541E+03 8.125E+03 1.081E+04 1.081E+04 2.676E+07 22.3325 1.00000
  2.818E+10 2.818E+10 4.466E+00 1.590E+02 2.851E+03 9.299E+03 1.231E+04 1.231E+04 2.703E+07 22.5628 1.00000
  3.162E+10 3.162E+10 4.484E+00 1.785E+02 3.199E+03 1.064E+04 1.402E+04 1.403E+04 2.729E+07 22.7930 1.00000
  3.548E+10 3.548E+10 4.501E+00 2.005E+02 3.589E+03 1.218E+04 1.597E+04 1.598E+04 2.755E+07 23.0233 1.00000
  3.981E+10 3.981E+10 4.520E+00 2.251E+02 4.027E+03 1.395E+04 1.820E+04 1.820E+04 2.780E+07 23.2535 1.00000
  4.467E+10 4.467E+10 4.538E+00 2.527E+02 4.518E+03 1.597E+04 2.074E+04 2.074E+04 2.805E+07 23.4838 1.00000
  5.012E+10 5.012E+10 4.556E+00 2.838E+02 5.069E+03 1.828E+04 2.363E+04 2.364E+04 2.830E+07 23.7141 1.00000
  5.623E+10 5.623E+10 4.574E+00 3.186E+02 5.688E+03 2.093E+04 2.693E+04 2.694E+04 2.854E+07 23.9443 1.00000
  6.310E+10 6.310E+10 4.593E+00 3.576E+02 6.382E+03 2.396E+04 3.070E+04 3.070E+04 2.878E+07 24.1746 1.00000
  7.079E+10 7.079E+10 4.612E+00 4.015E+02 7.160E+03 2.743E+04 3.500E+04 3.500E+04 2.902E+07 24.4048 1.00000
  7.943E+10 7.943E+10 4.630E+00 4.507E+02 8.034E+03 3.141E+04 3.990E+04 3.990E+04 2.925E+07 24.6351 1.00000
  8.913E+10 8.913E+10 4.649E+00 5.059E+02 9.014E+03 3.597E+04 4.549E+04 4.550E+04 2.948E+07 24.8654 1.00000
  1.000E+11 1.000E+11 4.668E+00 5.679E+02 1.011E+04 4.119E+04 5.188E+04 5.188E+04 2.970E+07 25.0956 1.00000
  1.122E+11 1.122E+11 4.687E+00 6.374E+02 1.135E+04 4.718E+04 5.916E+04 5.917E+04 2.992E+07 25.3259 1.00000
  1.259E+11 1.259E+11 4.706E+00 7.154E+02 1.273E+04 5.403E+04 6.748E+04 6.748E+04 3.014E+07 25.5561 1.00000
  1.413E+11 1.413E+11 4.725E+00 8.029E+02 1.429E+04 6.189E+04 7.698E+04 7.698E+04 3.035E+07 25.7864 1.00000
  1.585E+11 1.585E+11 4.745E+00 9.012E+02 1.603E+04 7.089E+04 8.782E+04 8.782E+04 3.056E+07 26.0166 1.00000
  1.778E+11 1.778E+11 4.764E+00 1.011E+03 1.798E+04 8.120E+04 1.002E+05 1.002E+05 3.077E+07 26.2469 1.00000
  1.995E+11 1.995E+11 4.784E+00 1.135E+03 2.018E+04 9.302E+04 1.143E+05 1.143E+05 3.097E+07 26.4772 1.00000
  2.239E+11 2.239E+11 4.803E+00 1.274E+03 2.264E+04 1.066E+05 1.305E+05 1.305E+05 3.117E+07 26.7074 1.00000
  2.512E+11 2.512E+11 4.823E+00 1.430E+03 2.540E+04 1.221E+05 1.489E+05 1.489E+05 3.137E+07 26.9377 1.00000
  2.818E+11 2.818E+11 4.843E+00 1.604E+03 2.850E+04 1.399E+05 1.700E+05 1.700E+05 3.156E+07 27.1679 1.00000
  3.162E+11 3.162E+11 4.863E+00 1.800E+03 3.198E+04 1.603E+05 1.940E+05 1.940E+05 3.175E+07 27.3982 1.00000
  3.548E+11 3.548E+11 4.883E+00 2.020E+03 3.588E+04 1.836E+05 2.215E+05 2.215E+05 3.194E+07 27.6285 1.00000
  3.981E+11 3.981E+11 4.903E+00 2.267E+03 4.025E+04 2.104E+05 2.529E+05 2.530E+05 3.212E+07 27.8587 1.00000
  4.467E+11 4.467E+11 4.924E+00 2.544E+03 4.516E+04 2.411E+05 2.888E+05 2.889E+05 3.230E+07 28.0890 1.00000
  5.012E+11 5.012E+11 4.944E+00 2.855E+03 5.067E+04 2.764E+05 3.299E+05 3.299E+05 3.248E+07 28.3192 1.00000
  5.623E+11 5.623E+11 4.965E+00 3.204E+03 5.685E+04 3.167E+05 3.768E+05 3.768E+05 3.265E+07 28.5495 1.00000
  6.310E+11 6.310E+11 4.985E+00 3.595E+03 6.379E+04 3.630E+05 4.304E+05 4.304E+05 3.282E+07 28.7797 1.00000
  7.079E+11 7.079E+11 5.006E+00 4.034E+03 7.157E+04 4.161E+05 4.917E+05 4.917E+05 3.299E+07 29.0100 1.00000
  7.943E+11 7.943E+11 5.027E+00 4.527E+03 8.030E+04 4.769E+05 5.618E+05 5.618E+05 3.316E+07 29.2403 1.00000
  8.913E+11 8.913E+11 5.048E+00 5.079E+03 9.009E+04 5.467E+05 6.419E+05 6.419E+05 3.332E+07 29.4705 1.00000
  1.000E+12 1.000E+12 5.069E+00 5.699E+03 1.011E+05 6.267E+05 7.335E+05 7.335E+05 3.348E+07 29.7008 1.00000
  1.122E+12 1.122E+12 5.091E+00 6.395E+03 1.134E+05 7.185E+05 8.383E+05 8.383E+05 3.363E+07 29.9310 1.00000
  1.259E+12 1.259E+12 5.112E+00 7.176E+03 1.272E+05 8.237E+05 9.582E+05 9.582E+05 3.379E+07 30.1613 1.00000
  1.413E+12 1.413E+12 5.134E+00 8.052E+03 1.428E+05 9.445E+05 1.095E+06 1.095E+06 3.394E+07 30.3916 1.00000
  1.585E+12 1.585E+12 5.155E+00 9.035E+03 1.602E+05 1.083E+06 1.252E+06 1.252E+06 3.408E+07 30.6218 1.00000
  1.778E+12 1.778E+12 5.177E+00 1.014E+04 1.797E+05 1.242E+06 1.432E+06 1.432E+06 3.423E+07 30.8521 1.00000
  1.995E+12 1.995E+12 5.199E+00 1.138E+04 2.016E+05 1.424E+06 1.637E+06 1.637E+06 3.437E+07 31.0823 1.00000
  2.239E+12 2.239E+12 5.221E+00 1.276E+04 2.262E+05 1.633E+06 1.872E+06 1.872E+06 3.451E+07 31.3126 1.00000
  2.512E+12 2.512E+12 5.243E+00 1.432E+04 2.538E+05 1.873E+06 2.141E+06 2.141E+06 3.465E+07 31.5428 1.00000
  2.818E+12 2.818E+12 5.265E+00 1.607E+04 2.848E+05 2.148E+06 2.449E+06 2.449E+06 3.478E+07 31.7731 1.00000
  3.162E+12 3.162E+12 5.287E+00 1.803E+04 3.195E+05 2.463E+06 2.801E+06 2.801E+06 3.491E+07 32.0034 1.00000
  3.548E+12 3.548E+12 5.310E+00 2.023E+04 3.585E+05 2.826E+06 3.204E+06 3.204E+06 3.504E+07 32.2336 1.00000
  3.981E+12 3.981E+12 5.333E+00 2.270E+04 4.022E+05 3.241E+06 3.666E+06 3.666E+06 3.517E+07 32.4639 1.00000
  4.467E+12 4.467E+12 5.355E+00 2.547E+04 4.513E+05 3.718E+06 4.195E+06 4.195E+06 3.529E+07 32.6941 1.00000
  5.012E+12 5.012E+12 5.378E+00 2.858E+04 5.063E+05 4.265E+06 4.800E+06 4.800E+06 3.541E+07 32.9244 1.00000
  5.623E+12 5.623E+12 5.401E+00 3.207E+04 5.681E+05 4.893E+06 5.493E+06 5.493E+06 3.553E+07 33.1547 1.00000
  6.310E+12 6.310E+12 5.424E+00 3.598E+04 6.374E+05 5.614E+06 6.287E+06 6.287E+06 3.565E+07 33.3849 1.00000
  7.079E+12 7.079E+12 5.447E+00 4.037E+04 7.151E+05 6.441E+06 7.196E+06 7.196E+06 3.577E+07 33.6152 1.00000
  7.943E+12 7.943E+12 5.471E+00 4.530E+04 8.023E+05 7.390E+06 8.238E+06 8.238E+06 3.588E+07 33.8454 1.00000
  8.913E+12 8.913E+12 5.494E+00 5.082E+04 9.002E+05 8.480E+06 9.431E+06 9.431E+06 3.599E+07 34.0757 1.00000
  1.000E+13 1.000E+13 5.518E+00 5.703E+04 1.010E+06 9.731E+06 1.080E+07 1.080E+07 3.610E+07 34.3060 1.00000
  1.122E+13 1.122E+13 5.542E+00 6.398E+04 1.133E+06 1.117E+07 1.236E+07 1.236E+07 3.620E+07 34.5362 1.00000
  1.259E+13 1.259E+13 5.565E+00 7.179E+04 1.271E+06 1.282E+07 1.416E+07 1.416E+07 3.631E+07 34.7665 1.00000
  1.413E+13 1.413E+13 5.589E+00 8.055E+04 1.426E+06 1.471E+07 1.622E+07 1.622E+07 3.641E+07 34.9967 1.00000
  1.585E+13 1.585E+13 5.614E+00 9.038E+04 1.600E+06 1.688E+07 1.857E+07 1.857E+07 3.651E+07 35.2270 1.00000
  1.778E+13 1.778E+13 5.638E+00 1.014E+05 1.796E+06 1.938E+07 2.127E+07 2.127E+07 3.660E+07 35.4572 1.00000
  1.995E+13 1.995E+13 5.662E+00 1.138E+05 2.015E+06 2.224E+07 2.437E+07 2.437E+07 3.670E+07 35.6875 1.00000
  2.239E+13 2.239E+13 5.687E+00 1.277E+05 2.260E+06 2.553E+07 2.792E+07 2.792E+07 3.679E+07 35.9178 1.00000
  2.512E+13 2.512E+13 5.711E+00 1.432E+05 2.536E+06 2.931E+07 3.199E+07 3.199E+07 3.688E+07 36.1480 1.00000
  2.818E+13 2.818E+13 5.736E+00 1.607E+05 2.845E+06 3.365E+07 3.665E+07 3.665E+07 3.697E+07 36.3783 1.00000
  3.162E+13 3.162E+13 5.761E+00 1.803E+05 3.192E+06 3.863E+07 4.200E+07 4.200E+07 3.706E+07 36.6085 1.00000
  3.548E+13 3.548E+13 5.786E+00 2.023E+05 3.581E+06 4.435E+07 4.814E+07 4.814E+07 3.715E+07 36.8388 1.00000
  3.981E+13 3.981E+13 5.811E+00 2.270E+05 4.018E+06 5.092E+07 5.517E+07 5.517E+07 3.723E+07 37.0691 1.00000
  4.467E+13 4.467E+13 5.837E+00 2.547E+05 4.508E+06 5.847E+07 6.324E+07 6.324E+07 3.732E+07 37.2993 1.00000
  5.012E+13 5.012E+13 5.862E+00 2.858E+05 5.058E+06 6.714E+07 7.249E+07 7.249E+07 3.740E+07 37.5296 1.00000
  5.623E+13 5.623E+13 5.888E+00 3.207E+05 5.675E+06 7.710E+07 8.310E+07 8.310E+07 3.747E+07 37.7598 1.00000
  6.310E+13 6.310E+13 5.913E+00 3.598E+05 6.367E+06 8.855E+07 9.527E+07 9.527E+07 3.755E+07 37.9901 1.00000
  7.079E+13 7.079E+13 5.939E+00 4.037E+05 7.143E+06 1.017E+08 1.092E+08 1.092E+08 3.763E+07 38.2203 1.00000
  7.943E+13 7.943E+13 5.965E+00 4.530E+05 8.014E+06 1.168E+08 1.253E+08 1.253E+08 3.770E+07 38.4506 1.00000
  8.913E+13 8.913E+13 5.991E+00 5.083E+05 8.992E+06 1.341E+08 1.436E+08 1.436E+08 3.777E+07 38.6809 1.00000
