 Incident particle is a Tau with M = 1776.82000 MeV
 Index = 2: Air
      Absorber with <Z/A> = 0.49919
 Sternheimer coef:  a     k=m_s   x_0    x_1    I[eV]   Cbar  delta0
                 0.1091  3.3994  1.7418  4.2759   85.7 85.7000 10.60

 *** Table generated with PUMAS v0.6 ***

      T         p     Ionization  brems     pair     photonuc  Radloss    dE/dx   CSDA Range  delta   beta
    [MeV]    [MeV/c]  -----------------------[MeV cm^2/g]------------------------  [g/cm^2]
  1.000E+05 1.018E+05 8.294E+00 1.450E-04 2.253E-03 8.298E-03 1.070E-02 8.305E+00 6.021E+03 -75.0858 0.99985
  1.122E+05 1.140E+05 8.324E+00 1.675E-04 2.718E-03 9.369E-03 1.225E-02 8.336E+00 7.487E+03 -75.0227 0.99988
  1.259E+05 1.277E+05 8.354E+00 1.934E-04 3.266E-03 1.052E-02 1.398E-02 8.368E+00 9.126E+03 -74.9518 0.99990
  1.413E+05 1.430E+05 8.383E+00 2.232E-04 3.913E-03 1.182E-02 1.595E-02 8.399E+00 1.096E+04 -74.8733 0.99992
  1.585E+05 1.603E+05 8.412E+00 2.575E-04 4.673E-03 1.327E-02 1.820E-02 8.430E+00 1.301E+04 -74.7874 0.99994
  1.778E+05 1.796E+05 8.440E+00 2.969E-04 5.565E-03 1.489E-02 2.075E-02 8.461E+00 1.530E+04 -74.6944 0.99995
  1.995E+05 2.013E+05 8.468E+00 3.422E-04 6.609E-03 1.674E-02 2.369E-02 8.491E+00 1.786E+04 -74.5944 0.99996
  2.239E+05 2.256E+05 8.495E+00 3.942E-04 7.830E-03 1.876E-02 2.698E-02 8.522E+00 2.072E+04 -74.4876 0.99997
  2.512E+05 2.530E+05 8.522E+00 4.539E-04 9.254E-03 2.102E-02 3.073E-02 8.553E+00 2.392E+04 -74.3742 0.99998
  2.818E+05 2.836E+05 8.548E+00 5.225E-04 1.091E-02 2.357E-02 3.500E-02 8.583E+00 2.750E+04 -74.2544 0.99998
  3.162E+05 3.180E+05 8.574E+00 6.011E-04 1.284E-02 2.645E-02 3.989E-02 8.614E+00 3.149E+04 -74.1285 0.99998
  3.548E+05 3.566E+05 8.600E+00 6.913E-04 1.508E-02 2.968E-02 4.545E-02 8.645E+00 3.597E+04 -73.9966 0.99999
  3.981E+05 3.999E+05 8.625E+00 7.946E-04 1.767E-02 3.329E-02 5.175E-02 8.677E+00 4.096E+04 -73.8589 0.99999
  4.467E+05 4.485E+05 8.650E+00 9.131E-04 2.067E-02 3.733E-02 5.891E-02 8.709E+00 4.655E+04 -73.7156 0.99999
  5.012E+05 5.030E+05 8.674E+00 1.049E-03 2.413E-02 4.188E-02 6.707E-02 8.741E+00 5.280E+04 -73.5669 0.99999
  5.623E+05 5.641E+05 8.698E+00 1.204E-03 2.813E-02 4.681E-02 7.615E-02 8.774E+00 5.978E+04 -73.4131 1.00000
  6.310E+05 6.327E+05 8.721E+00 1.382E-03 3.274E-02 5.237E-02 8.650E-02 8.808E+00 6.759E+04 -73.2542 1.00000
  7.079E+05 7.097E+05 8.744E+00 1.586E-03 3.805E-02 5.864E-02 9.828E-02 8.842E+00 7.631E+04 -73.0906 1.00000
  7.943E+05 7.961E+05 8.767E+00 1.819E-03 4.415E-02 6.572E-02 1.117E-01 8.878E+00 8.606E+04 -72.9224 1.00000
  8.913E+05 8.930E+05 8.789E+00 2.086E-03 5.115E-02 7.373E-02 1.270E-01 8.916E+00 9.696E+04 -72.7497 1.00000
  1.000E+06 1.002E+06 8.811E+00 2.391E-03 5.919E-02 8.278E-02 1.444E-01 8.955E+00 1.091E+05 -72.5729 1.00000
  1.122E+06 1.124E+06 8.832E+00 2.740E-03 6.839E-02 9.302E-02 1.642E-01 8.996E+00 1.227E+05 -72.3920 1.00000
  1.259E+06 1.261E+06 8.853E+00 3.139E-03 7.893E-02 1.046E-01 1.867E-01 9.040E+00 1.379E+05 -72.2072 1.00000
  1.413E+06 1.414E+06 8.874E+00 3.596E-03 9.097E-02 1.178E-01 2.123E-01 9.086E+00 1.549E+05 -72.0188 1.00000
  1.585E+06 1.587E+06 8.894E+00 4.117E-03 1.047E-01 1.327E-01 2.415E-01 9.135E+00 1.738E+05 -71.8268 1.00000
  1.778E+06 1.780E+06 8.914E+00 4.712E-03 1.204E-01 1.496E-01 2.747E-01 9.188E+00 1.949E+05 -71.6316 1.00000
  1.995E+06 1.997E+06 8.933E+00 5.392E-03 1.383E-01 1.688E-01 3.125E-01 9.246E+00 2.184E+05 -71.4332 1.00000
  2.239E+06 2.240E+06 8.952E+00 6.169E-03 1.587E-01 1.906E-01 3.555E-01 9.308E+00 2.447E+05 -71.2319 1.00000
  2.512E+06 2.514E+06 8.971E+00 7.055E-03 1.819E-01 2.154E-01 4.043E-01 9.375E+00 2.739E+05 -71.0277 1.00000
  2.818E+06 2.820E+06 8.990E+00 8.067E-03 2.083E-01 2.435E-01 4.599E-01 9.449E+00 3.065E+05 -70.8209 1.00000
  3.162E+06 3.164E+06 9.008E+00 9.222E-03 2.382E-01 2.755E-01 5.230E-01 9.531E+00 3.427E+05 -70.6117 1.00000
  3.548E+06 3.550E+06 9.025E+00 1.054E-02 2.722E-01 3.120E-01 5.947E-01 9.620E+00 3.830E+05 -70.4001 1.00000
  3.981E+06 3.983E+06 9.043E+00 1.204E-02 3.108E-01 3.534E-01 6.762E-01 9.719E+00 4.278E+05 -70.1863 1.00000
  4.467E+06 4.469E+06 9.060E+00 1.375E-02 3.545E-01 4.005E-01 7.688E-01 9.829E+00 4.775E+05 -69.9706 1.00000
  5.012E+06 5.014E+06 9.077E+00 1.571E-02 4.040E-01 4.542E-01 8.739E-01 9.951E+00 5.326E+05 -69.7530 1.00000
  5.623E+06 5.625E+06 9.093E+00 1.793E-02 4.600E-01 5.153E-01 9.933E-01 1.009E+01 5.936E+05 -69.5337 1.00000
  6.310E+06 6.311E+06 9.110E+00 2.046E-02 5.234E-01 5.849E-01 1.129E+00 1.024E+01 6.612E+05 -69.3128 1.00000
  7.079E+06 7.081E+06 9.125E+00 2.335E-02 5.951E-01 6.642E-01 1.283E+00 1.041E+01 7.357E+05 -69.0905 1.00000
  7.943E+06 7.945E+06 9.141E+00 2.664E-02 6.761E-01 7.546E-01 1.457E+00 1.060E+01 8.180E+05 -68.8669 1.00000
  8.913E+06 8.914E+06 9.157E+00 3.038E-02 7.676E-01 8.575E-01 1.655E+00 1.081E+01 9.085E+05 -68.6422 1.00000
  1.000E+07 1.000E+07 9.172E+00 3.464E-02 8.708E-01 9.749E-01 1.880E+00 1.105E+01 1.008E+06 -68.4164 1.00000
  1.122E+07 1.122E+07 9.187E+00 3.948E-02 9.873E-01 1.109E+00 2.135E+00 1.132E+01 1.117E+06 -68.1897 1.00000
  1.259E+07 1.259E+07 9.202E+00 4.499E-02 1.119E+00 1.261E+00 2.425E+00 1.163E+01 1.236E+06 -67.9622 1.00000
  1.413E+07 1.413E+07 9.217E+00 5.126E-02 1.267E+00 1.435E+00 2.753E+00 1.197E+01 1.367E+06 -67.7340 1.00000
  1.585E+07 1.585E+07 9.231E+00 5.838E-02 1.434E+00 1.633E+00 3.126E+00 1.236E+01 1.508E+06 -67.5053 1.00000
  1.778E+07 1.778E+07 9.246E+00 6.647E-02 1.622E+00 1.860E+00 3.548E+00 1.279E+01 1.662E+06 -67.2761 1.00000
  1.995E+07 1.995E+07 9.260E+00 7.566E-02 1.834E+00 2.118E+00 4.027E+00 1.329E+01 1.829E+06 -67.0466 1.00000
  2.239E+07 2.239E+07 9.274E+00 8.610E-02 2.072E+00 2.412E+00 4.570E+00 1.384E+01 2.008E+06 -66.8167 1.00000
  2.512E+07 2.512E+07 9.288E+00 9.796E-02 2.341E+00 2.748E+00 5.187E+00 1.447E+01 2.201E+06 -66.5867 1.00000
  2.818E+07 2.819E+07 9.302E+00 1.114E-01 2.642E+00 3.131E+00 5.885E+00 1.519E+01 2.408E+06 -66.3565 1.00000
  3.162E+07 3.162E+07 9.316E+00 1.267E-01 2.982E+00 3.569E+00 6.678E+00 1.599E+01 2.629E+06 -66.1263 1.00000
  3.548E+07 3.548E+07 9.330E+00 1.440E-01 3.364E+00 4.068E+00 7.576E+00 1.691E+01 2.863E+06 -65.8960 1.00000
  3.981E+07 3.981E+07 9.344E+00 1.636E-01 3.794E+00 4.638E+00 8.595E+00 1.794E+01 3.112E+06 -65.6658 1.00000
  4.467E+07 4.467E+07 9.358E+00 1.859E-01 4.277E+00 5.288E+00 9.751E+00 1.911E+01 3.375E+06 -65.4355 1.00000
  5.012E+07 5.012E+07 9.372E+00 2.111E-01 4.820E+00 6.030E+00 1.106E+01 2.043E+01 3.651E+06 -65.2053 1.00000
  5.623E+07 5.624E+07 9.386E+00 2.397E-01 5.430E+00 6.878E+00 1.255E+01 2.193E+01 3.940E+06 -64.9750 1.00000
  6.310E+07 6.310E+07 9.400E+00 2.721E-01 6.115E+00 7.845E+00 1.423E+01 2.363E+01 4.241E+06 -64.7448 1.00000
  7.079E+07 7.080E+07 9.413E+00 3.088E-01 6.885E+00 8.950E+00 1.614E+01 2.556E+01 4.555E+06 -64.5145 1.00000
  7.943E+07 7.943E+07 9.427E+00 3.503E-01 7.750E+00 1.021E+01 1.831E+01 2.774E+01 4.880E+06 -64.2843 1.00000
  8.913E+07 8.913E+07 9.441E+00 3.973E-01 8.722E+00 1.165E+01 2.077E+01 3.021E+01 5.215E+06 -64.0540 1.00000
  1.000E+08 1.000E+08 9.455E+00 4.504E-01 9.813E+00 1.330E+01 2.356E+01 3.301E+01 5.559E+06 -63.8238 1.00000
  1.122E+08 1.122E+08 9.469E+00 5.105E-01 1.104E+01 1.517E+01 2.672E+01 3.619E+01 5.913E+06 -63.5935 1.00000
  1.259E+08 1.259E+08 9.483E+00 5.785E-01 1.241E+01 1.732E+01 3.031E+01 3.980E+01 6.274E+06 -63.3633 1.00000
  1.413E+08 1.413E+08 9.497E+00 6.553E-01 1.396E+01 1.977E+01 3.438E+01 4.388E+01 6.642E+06 -63.1330 1.00000
  1.585E+08 1.585E+08 9.511E+00 7.422E-01 1.569E+01 2.257E+01 3.900E+01 4.852E+01 7.016E+06 -62.9027 1.00000
  1.778E+08 1.778E+08 9.525E+00 8.403E-01 1.764E+01 2.576E+01 4.425E+01 5.377E+01 7.395E+06 -62.6725 1.00000
  1.995E+08 1.995E+08 9.540E+00 9.511E-01 1.983E+01 2.942E+01 5.020E+01 5.974E+01 7.778E+06 -62.4422 1.00000
  2.239E+08 2.239E+08 9.554E+00 1.076E+00 2.228E+01 3.359E+01 5.695E+01 6.650E+01 8.165E+06 -62.2120 1.00000
  2.512E+08 2.512E+08 9.568E+00 1.217E+00 2.504E+01 3.836E+01 6.461E+01 7.418E+01 8.555E+06 -61.9817 1.00000
  2.818E+08 2.818E+08 9.582E+00 1.377E+00 2.813E+01 4.380E+01 7.331E+01 8.289E+01 8.946E+06 -61.7515 1.00000
  3.162E+08 3.162E+08 9.597E+00 1.557E+00 3.160E+01 5.002E+01 8.318E+01 9.278E+01 9.339E+06 -61.5212 1.00000
  3.548E+08 3.548E+08 9.611E+00 1.759E+00 3.550E+01 5.713E+01 9.439E+01 1.040E+02 9.732E+06 -61.2909 1.00000
  3.981E+08 3.981E+08 9.626E+00 1.988E+00 3.987E+01 6.526E+01 1.071E+02 1.167E+02 1.013E+07 -61.0607 1.00000
  4.467E+08 4.467E+08 9.640E+00 2.246E+00 4.477E+01 7.455E+01 1.216E+02 1.312E+02 1.052E+07 -60.8304 1.00000
  5.012E+08 5.012E+08 9.655E+00 2.537E+00 5.028E+01 8.516E+01 1.380E+02 1.476E+02 1.091E+07 -60.6002 1.00000
  5.623E+08 5.623E+08 9.670E+00 2.864E+00 5.646E+01 9.729E+01 1.566E+02 1.663E+02 1.130E+07 -60.3699 1.00000
  6.310E+08 6.310E+08 9.685E+00 3.233E+00 6.339E+01 1.111E+02 1.778E+02 1.875E+02 1.169E+07 -60.1397 1.00000
  7.079E+08 7.079E+08 9.700E+00 3.649E+00 7.117E+01 1.270E+02 2.018E+02 2.115E+02 1.208E+07 -59.9094 1.00000
  7.943E+08 7.943E+08 9.715E+00 4.117E+00 7.991E+01 1.451E+02 2.291E+02 2.388E+02 1.246E+07 -59.6791 1.00000
  8.913E+08 8.913E+08 9.730E+00 4.644E+00 8.971E+01 1.658E+02 2.602E+02 2.699E+02 1.285E+07 -59.4489 1.00000
  1.000E+09 1.000E+09 9.745E+00 5.238E+00 1.007E+02 1.895E+02 2.954E+02 3.052E+02 1.323E+07 -59.2186 1.00000
  1.122E+09 1.122E+09 9.760E+00 5.906E+00 1.130E+02 2.166E+02 3.355E+02 3.453E+02 1.360E+07 -58.9884 1.00000
  1.259E+09 1.259E+09 9.775E+00 6.657E+00 1.269E+02 2.475E+02 3.810E+02 3.908E+02 1.398E+07 -58.7581 1.00000
  1.413E+09 1.413E+09 9.791E+00 7.503E+00 1.424E+02 2.829E+02 4.328E+02 4.426E+02 1.435E+07 -58.5279 1.00000
  1.585E+09 1.585E+09 9.806E+00 8.454E+00 1.599E+02 3.233E+02 4.916E+02 5.014E+02 1.471E+07 -58.2976 1.00000
  1.778E+09 1.778E+09 9.822E+00 9.524E+00 1.794E+02 3.696E+02 5.585E+02 5.683E+02 1.508E+07 -58.0673 1.00000
  1.995E+09 1.995E+09 9.837E+00 1.073E+01 2.014E+02 4.225E+02 6.346E+02 6.444E+02 1.544E+07 -57.8371 1.00000
  2.239E+09 2.239E+09 9.853E+00 1.208E+01 2.260E+02 4.830E+02 7.211E+02 7.309E+02 1.579E+07 -57.6068 1.00000
  2.512E+09 2.512E+09 9.869E+00 1.360E+01 2.536E+02 5.522E+02 8.194E+02 8.293E+02 1.614E+07 -57.3766 1.00000
  2.818E+09 2.818E+09 9.885E+00 1.531E+01 2.846E+02 6.313E+02 9.313E+02 9.412E+02 1.649E+07 -57.1463 1.00000
  3.162E+09 3.162E+09 9.901E+00 1.723E+01 3.194E+02 7.219E+02 1.059E+03 1.068E+03 1.683E+07 -56.9160 1.00000
  3.548E+09 3.548E+09 9.917E+00 1.939E+01 3.585E+02 8.254E+02 1.203E+03 1.213E+03 1.717E+07 -56.6858 1.00000
  3.981E+09 3.981E+09 9.933E+00 2.182E+01 4.023E+02 9.438E+02 1.368E+03 1.378E+03 1.751E+07 -56.4555 1.00000
  4.467E+09 4.467E+09 9.949E+00 2.455E+01 4.514E+02 1.079E+03 1.555E+03 1.565E+03 1.784E+07 -56.2253 1.00000
  5.012E+09 5.012E+09 9.965E+00 2.761E+01 5.065E+02 1.234E+03 1.769E+03 1.779E+03 1.817E+07 -55.9950 1.00000
  5.623E+09 5.623E+09 9.982E+00 3.105E+01 5.684E+02 1.412E+03 2.011E+03 2.021E+03 1.849E+07 -55.7648 1.00000
  6.310E+09 6.310E+09 9.998E+00 3.492E+01 6.378E+02 1.615E+03 2.287E+03 2.297E+03 1.881E+07 -55.5345 1.00000
  7.079E+09 7.079E+09 1.002E+01 3.926E+01 7.157E+02 1.847E+03 2.602E+03 2.612E+03 1.912E+07 -55.3042 1.00000
  7.943E+09 7.943E+09 1.003E+01 4.414E+01 8.031E+02 2.113E+03 2.960E+03 2.970E+03 1.944E+07 -55.0740 1.00000
  8.913E+09 8.913E+09 1.005E+01 4.962E+01 9.012E+02 2.417E+03 3.367E+03 3.378E+03 1.974E+07 -54.8437 1.00000
  1.000E+10 1.000E+10 1.007E+01 5.577E+01 1.011E+03 2.765E+03 3.832E+03 3.842E+03 2.004E+07 -54.6135 1.00000
  1.122E+10 1.122E+10 1.008E+01 6.268E+01 1.135E+03 3.163E+03 4.360E+03 4.370E+03 2.034E+07 -54.3832 1.00000
  1.259E+10 1.259E+10 1.010E+01 7.043E+01 1.273E+03 3.619E+03 4.962E+03 4.972E+03 2.064E+07 -54.1529 1.00000
  1.413E+10 1.413E+10 1.012E+01 7.914E+01 1.429E+03 4.140E+03 5.648E+03 5.658E+03 2.093E+07 -53.9227 1.00000
  1.585E+10 1.585E+10 1.013E+01 8.891E+01 1.603E+03 4.738E+03 6.429E+03 6.439E+03 2.121E+07 -53.6924 1.00000
  1.778E+10 1.778E+10 1.015E+01 9.988E+01 1.799E+03 5.421E+03 7.320E+03 7.330E+03 2.150E+07 -53.4622 1.00000
  1.995E+10 1.995E+10 1.017E+01 1.122E+02 2.018E+03 6.204E+03 8.334E+03 8.344E+03 2.177E+07 -53.2319 1.00000
  2.239E+10 2.239E+10 1.019E+01 1.260E+02 2.264E+03 7.099E+03 9.490E+03 9.500E+03 2.205E+07 -53.0016 1.00000
  2.512E+10 2.512E+10 1.020E+01 1.415E+02 2.541E+03 8.125E+03 1.081E+04 1.082E+04 2.232E+07 -52.7714 1.00000
  2.818E+10 2.818E+10 1.022E+01 1.590E+02 2.851E+03 9.299E+03 1.231E+04 1.232E+04 2.258E+07 -52.5411 1.00000
  3.162E+10 3.162E+10 1.024E+01 1.785E+02 3.199E+03 1.064E+04 1.402E+04 1.403E+04 2.285E+07 -52.3109 1.00000
  3.548E+10 3.548E+10 1.026E+01 2.005E+02 3.589E+03 1.218E+04 1.597E+04 1.598E+04 2.310E+07 -52.0806 1.00000
  3.981E+10 3.981E+10 1.028E+01 2.251E+02 4.027E+03 1.395E+04 1.820E+04 1.821E+04 2.336E+07 -51.8504 1.00000
  4.467E+10 4.467E+10 1.029E+01 2.527E+02 4.518E+03 1.597E+04 2.074E+04 2.075E+04 2.361E+07 -51.6201 1.00000
  5.012E+10 5.012E+10 1.031E+01 2.838E+02 5.069E+03 1.828E+04 2.363E+04 2.364E+04 2.386E+07 -51.3898 1.00000
  5.623E+10 5.623E+10 1.033E+01 3.186E+02 5.688E+03 2.093E+04 2.693E+04 2.694E+04 2.410E+07 -51.1596 1.00000
  6.310E+10 6.310E+10 1.035E+01 3.576E+02 6.382E+03 2.396E+04 3.070E+04 3.071E+04 2.434E+07 -50.9293 1.00000
  7.079E+10 7.079E+10 1.037E+01 4.015E+02 7.160E+03 2.743E+04 3.500E+04 3.501E+04 2.457E+07 -50.6991 1.00000
  7.943E+10 7.943E+10 1.039E+01 4.507E+02 8.034E+03 3.141E+04 3.990E+04 3.991E+04 2.480E+07 -50.4688 1.00000
  8.913E+10 8.913E+10 1.041E+01 5.059E+02 9.014E+03 3.597E+04 4.549E+04 4.550E+04 2.503E+07 -50.2385 1.00000
  1.000E+11 1.000E+11 1.042E+01 5.679E+02 1.011E+04 4.119E+04 5.188E+04 5.189E+04 2.526E+07 -50.0083 1.00000
  1.122E+11 1.122E+11 1.044E+01 6.374E+02 1.135E+04 4.718E+04 5.916E+04 5.917E+04 2.548E+07 -49.7780 1.00000
  1.259E+11 1.259E+11 1.046E+01 7.154E+02 1.273E+04 5.403E+04 6.748E+04 6.749E+04 2.569E+07 -49.5478 1.00000
  1.413E+11 1.413E+11 1.048E+01 8.029E+02 1.429E+04 6.189E+04 7.698E+04 7.699E+04 2.591E+07 -49.3175 1.00000
  1.585E+11 1.585E+11 1.050E+01 9.012E+02 1.603E+04 7.089E+04 8.782E+04 8.783E+04 2.612E+07 -49.0873 1.00000
  1.778E+11 1.778E+11 1.052E+01 1.011E+03 1.798E+04 8.120E+04 1.002E+05 1.002E+05 2.632E+07 -48.8570 1.00000
  1.995E+11 1.995E+11 1.054E+01 1.135E+03 2.018E+04 9.302E+04 1.143E+05 1.143E+05 2.653E+07 -48.6267 1.00000
  2.239E+11 2.239E+11 1.056E+01 1.274E+03 2.264E+04 1.066E+05 1.305E+05 1.305E+05 2.673E+07 -48.3965 1.00000
  2.512E+11 2.512E+11 1.058E+01 1.430E+03 2.540E+04 1.221E+05 1.489E+05 1.489E+05 2.692E+07 -48.1662 1.00000
  2.818E+11 2.818E+11 1.060E+01 1.604E+03 2.850E+04 1.399E+05 1.700E+05 1.700E+05 2.712E+07 -47.9360 1.00000
  3.162E+11 3.162E+11 1.062E+01 1.800E+03 3.198E+04 1.603E+05 1.940E+05 1.941E+05 2.731E+07 -47.7057 1.00000
  3.548E+11 3.548E+11 1.064E+01 2.020E+03 3.588E+04 1.836E+05 2.215E+05 2.215E+05 2.749E+07 -47.4754 1.00000
  3.981E+11 3.981E+11 1.066E+01 2.267E+03 4.025E+04 2.104E+05 2.529E+05 2.530E+05 2.768E+07 -47.2452 1.00000
  4.467E+11 4.467E+11 1.068E+01 2.544E+03 4.516E+04 2.411E+05 2.888E+05 2.889E+05 2.786E+07 -47.0149 1.00000
  5.012E+11 5.012E+11 1.070E+01 2.855E+03 5.067E+04 2.764E+05 3.299E+05 3.299E+05 2.803E+07 -46.7847 1.00000
  5.623E+11 5.623E+11 1.072E+01 3.204E+03 5.685E+04 3.167E+05 3.768E+05 3.768E+05 2.821E+07 -46.5544 1.00000
  6.310E+11 6.310E+11 1.074E+01 3.595E+03 6.379E+04 3.630E+05 4.304E+05 4.304E+05 2.838E+07 -46.3242 1.00000
  7.079E+11 7.079E+11 1.076E+01 4.034E+03 7.157E+04 4.161E+05 4.917E+05 4.917E+05 2.855E+07 -46.0939 1.00000
  7.943E+11 7.943E+11 1.078E+01 4.527E+03 8.030E+04 4.769E+05 5.618E+05 5.618E+05 2.871E+07 -45.8636 1.00000
  8.913E+11 8.913E+11 1.080E+01 5.079E+03 9.009E+04 5.467E+05 6.419E+05 6.419E+05 2.887E+07 -45.6334 1.00000
  1.000E+12 1.000E+12 1.083E+01 5.699E+03 1.011E+05 6.267E+05 7.335E+05 7.335E+05 2.903E+07 -45.4031 1.00000
  1.122E+12 1.122E+12 1.085E+01 6.395E+03 1.134E+05 7.185E+05 8.383E+05 8.383E+05 2.919E+07 -45.1729 1.00000
  1.259E+12 1.259E+12 1.087E+01 7.176E+03 1.272E+05 8.237E+05 9.582E+05 9.582E+05 2.934E+07 -44.9426 1.00000
  1.413E+12 1.413E+12 1.089E+01 8.052E+03 1.428E+05 9.445E+05 1.095E+06 1.095E+06 2.949E+07 -44.7123 1.00000
  1.585E+12 1.585E+12 1.091E+01 9.035E+03 1.602E+05 1.083E+06 1.252E+06 1.252E+06 2.964E+07 -44.4821 1.00000
  1.778E+12 1.778E+12 1.093E+01 1.014E+04 1.797E+05 1.242E+06 1.432E+06 1.432E+06 2.978E+07 -44.2518 1.00000
  1.995E+12 1.995E+12 1.096E+01 1.138E+04 2.016E+05 1.424E+06 1.637E+06 1.637E+06 2.992E+07 -44.0216 1.00000
  2.239E+12 2.239E+12 1.098E+01 1.276E+04 2.262E+05 1.633E+06 1.872E+06 1.872E+06 3.006E+07 -43.7913 1.00000
  2.512E+12 2.512E+12 1.100E+01 1.432E+04 2.538E+05 1.873E+06 2.141E+06 2.141E+06 3.020E+07 -43.5611 1.00000
  2.818E+12 2.818E+12 1.102E+01 1.607E+04 2.848E+05 2.148E+06 2.449E+06 2.449E+06 3.034E+07 -43.3308 1.00000
  3.162E+12 3.162E+12 1.104E+01 1.803E+04 3.195E+05 2.463E+06 2.801E+06 2.801E+06 3.047E+07 -43.1005 1.00000
  3.548E+12 3.548E+12 1.107E+01 2.023E+04 3.585E+05 2.826E+06 3.204E+06 3.204E+06 3.060E+07 -42.8703 1.00000
  3.981E+12 3.981E+12 1.109E+01 2.270E+04 4.022E+05 3.241E+06 3.666E+06 3.666E+06 3.072E+07 -42.6400 1.00000
  4.467E+12 4.467E+12 1.111E+01 2.547E+04 4.513E+05 3.718E+06 4.195E+06 4.195E+06 3.085E+07 -42.4098 1.00000
  5.012E+12 5.012E+12 1.113E+01 2.858E+04 5.063E+05 4.265E+06 4.800E+06 4.800E+06 3.097E+07 -42.1795 1.00000
  5.623E+12 5.623E+12 1.116E+01 3.207E+04 5.681E+05 4.893E+06 5.493E+06 5.493E+06 3.109E+07 -41.9492 1.00000
  6.310E+12 6.310E+12 1.118E+01 3.598E+04 6.374E+05 5.614E+06 6.287E+06 6.287E+06 3.120E+07 -41.7190 1.00000
  7.079E+12 7.079E+12 1.120E+01 4.037E+04 7.151E+05 6.441E+06 7.196E+06 7.197E+06 3.132E+07 -41.4887 1.00000
  7.943E+12 7.943E+12 1.123E+01 4.530E+04 8.023E+05 7.390E+06 8.238E+06 8.238E+06 3.143E+07 -41.2585 1.00000
  8.913E+12 8.913E+12 1.125E+01 5.082E+04 9.002E+05 8.480E+06 9.431E+06 9.431E+06 3.154E+07 -41.0282 1.00000
  1.000E+13 1.000E+13 1.127E+01 5.703E+04 1.010E+06 9.731E+06 1.080E+07 1.080E+07 3.165E+07 -40.7979 1.00000
  1.122E+13 1.122E+13 1.130E+01 6.398E+04 1.133E+06 1.117E+07 1.236E+07 1.236E+07 3.176E+07 -40.5677 1.00000
  1.259E+13 1.259E+13 1.132E+01 7.179E+04 1.271E+06 1.282E+07 1.416E+07 1.416E+07 3.186E+07 -40.3374 1.00000
  1.413E+13 1.413E+13 1.135E+01 8.055E+04 1.426E+06 1.471E+07 1.622E+07 1.622E+07 3.196E+07 -40.1072 1.00000
  1.585E+13 1.585E+13 1.137E+01 9.038E+04 1.600E+06 1.688E+07 1.857E+07 1.857E+07 3.206E+07 -39.8769 1.00000
  1.778E+13 1.778E+13 1.139E+01 1.014E+05 1.796E+06 1.938E+07 2.127E+07 2.127E+07 3.216E+07 -39.6467 1.00000
  1.995E+13 1.995E+13 1.142E+01 1.138E+05 2.015E+06 2.224E+07 2.437E+07 2.437E+07 3.225E+07 -39.4164 1.00000
  2.239E+13 2.239E+13 1.144E+01 1.277E+05 2.260E+06 2.553E+07 2.792E+07 2.792E+07 3.235E+07 -39.1861 1.00000
  2.512E+13 2.512E+13 1.147E+01 1.432E+05 2.536E+06 2.931E+07 3.199E+07 3.199E+07 3.244E+07 -38.9559 1.00000
  2.818E+13 2.818E+13 1.149E+01 1.607E+05 2.845E+06 3.365E+07 3.665E+07 3.665E+07 3.253E+07 -38.7256 1.00000
  3.162E+13 3.162E+13 1.152E+01 1.803E+05 3.192E+06 3.863E+07 4.200E+07 4.200E+07 3.262E+07 -38.4954 1.00000
  3.548E+13 3.548E+13 1.154E+01 2.023E+05 3.581E+06 4.435E+07 4.814E+07 4.814E+07 3.270E+07 -38.2651 1.00000
  3.981E+13 3.981E+13 1.157E+01 2.270E+05 4.018E+06 5.092E+07 5.517E+07 5.517E+07 3.279E+07 -38.0348 1.00000
  4.467E+13 4.467E+13 1.159E+01 2.547E+05 4.508E+06 5.847E+07 6.324E+07 6.324E+07 3.287E+07 -37.8046 1.00000
  5.012E+13 5.012E+13 1.162E+01 2.858E+05 5.058E+06 6.714E+07 7.249E+07 7.249E+07 3.295E+07 -37.5743 1.00000
  5.623E+13 5.623E+13 1.164E+01 3.207E+05 5.675E+06 7.710E+07 8.310E+07 8.310E+07 3.303E+07 -37.3441 1.00000
  6.310E+13 6.310E+13 1.167E+01 3.598E+05 6.367E+06 8.855E+07 9.527E+07 9.527E+07 3.311E+07 -37.1138 1.00000
  7.079E+13 7.079E+13 1.170E+01 4.037E+05 7.143E+06 1.017E+08 1.092E+08 1.092E+08 3.318E+07 -36.8836 1.00000
  7.943E+13 7.943E+13 1.172E+01 4.530E+05 8.014E+06 1.168E+08 1.253E+08 1.253E+08 3.326E+07 -36.6533 1.00000
