 Incident particle is a Tau with M = 1776.82000 MeV
 Index = 1: Water
      Absorber with <Z/A> = 0.55500
 Sternheimer coef:  a     k=m_s   x_0    x_1    I[eV]   Cbar  delta0
                 0.0912  3.4773  0.2400  2.8004   79.7  3.5017 0.00

 *** Table generated with PUMAS v0.6 ***

      T         p     Ionization  brems     pair     photonuc  Radloss    dE/dx   CSDA Range  delta   beta
    [MeV]    [MeV/c]  -----------------------[MeV cm^2/g]------------------------  [g/cm^2]
  1.000E+05 1.018E+05 2.433E+00 1.448E-04 2.259E-03 8.375E-03 1.078E-02 2.444E+00 2.046E+04  4.6993 0.99985
  1.122E+05 1.140E+05 2.454E+00 1.673E-04 2.727E-03 9.461E-03 1.236E-02 2.467E+00 2.543E+04  4.9095 0.99988
  1.259E+05 1.277E+05 2.475E+00 1.932E-04 3.280E-03 1.063E-02 1.410E-02 2.490E+00 3.095E+04  5.1220 0.99990
  1.413E+05 1.430E+05 2.497E+00 2.229E-04 3.932E-03 1.195E-02 1.610E-02 2.513E+00 3.710E+04  5.3365 0.99992
  1.585E+05 1.603E+05 2.518E+00 2.572E-04 4.698E-03 1.342E-02 1.838E-02 2.536E+00 4.392E+04  5.5530 0.99994
  1.778E+05 1.796E+05 2.538E+00 2.965E-04 5.598E-03 1.507E-02 2.097E-02 2.559E+00 5.152E+04  5.7713 0.99995
  1.995E+05 2.013E+05 2.559E+00 3.418E-04 6.651E-03 1.695E-02 2.394E-02 2.583E+00 5.995E+04  5.9911 0.99996
  2.239E+05 2.256E+05 2.580E+00 3.937E-04 7.883E-03 1.901E-02 2.728E-02 2.607E+00 6.934E+04  6.2125 0.99997
  2.512E+05 2.530E+05 2.601E+00 4.534E-04 9.320E-03 2.131E-02 3.109E-02 2.632E+00 7.976E+04  6.4352 0.99998
  2.818E+05 2.836E+05 2.621E+00 5.219E-04 1.099E-02 2.391E-02 3.543E-02 2.657E+00 9.135E+04  6.6590 0.99998
  3.162E+05 3.180E+05 2.642E+00 6.004E-04 1.294E-02 2.685E-02 4.039E-02 2.682E+00 1.042E+05  6.8840 0.99998
  3.548E+05 3.566E+05 2.662E+00 6.905E-04 1.520E-02 3.015E-02 4.603E-02 2.708E+00 1.186E+05  7.1099 0.99999
  3.981E+05 3.999E+05 2.683E+00 7.939E-04 1.781E-02 3.383E-02 5.244E-02 2.735E+00 1.345E+05  7.3366 0.99999
  4.467E+05 4.485E+05 2.703E+00 9.123E-04 2.084E-02 3.796E-02 5.972E-02 2.763E+00 1.521E+05  7.5640 0.99999
  5.012E+05 5.030E+05 2.723E+00 1.048E-03 2.434E-02 4.261E-02 6.800E-02 2.791E+00 1.718E+05  7.7920 0.99999
  5.623E+05 5.641E+05 2.743E+00 1.203E-03 2.838E-02 4.765E-02 7.724E-02 2.821E+00 1.936E+05  8.0205 1.00000
  6.310E+05 6.327E+05 2.763E+00 1.381E-03 3.304E-02 5.334E-02 8.776E-02 2.851E+00 2.178E+05  8.2495 1.00000
  7.079E+05 7.097E+05 2.783E+00 1.585E-03 3.840E-02 5.975E-02 9.974E-02 2.883E+00 2.446E+05  8.4787 1.00000
  7.943E+05 7.961E+05 2.803E+00 1.819E-03 4.457E-02 6.700E-02 1.134E-01 2.917E+00 2.744E+05  8.7082 1.00000
  8.913E+05 8.930E+05 2.823E+00 2.086E-03 5.165E-02 7.520E-02 1.289E-01 2.952E+00 3.074E+05  8.9379 1.00000
  1.000E+06 1.002E+06 2.843E+00 2.391E-03 5.977E-02 8.446E-02 1.466E-01 2.989E+00 3.440E+05  9.1677 1.00000
  1.122E+06 1.124E+06 2.862E+00 2.740E-03 6.908E-02 9.496E-02 1.668E-01 3.029E+00 3.846E+05  9.3976 1.00000
  1.259E+06 1.261E+06 2.882E+00 3.140E-03 7.973E-02 1.068E-01 1.897E-01 3.072E+00 4.295E+05  9.6275 1.00000
  1.413E+06 1.414E+06 2.901E+00 3.596E-03 9.191E-02 1.203E-01 2.158E-01 3.117E+00 4.791E+05  9.8574 1.00000
  1.585E+06 1.587E+06 2.920E+00 4.118E-03 1.058E-01 1.356E-01 2.455E-01 3.166E+00 5.340E+05 10.0874 1.00000
  1.778E+06 1.780E+06 2.940E+00 4.715E-03 1.217E-01 1.529E-01 2.794E-01 3.219E+00 5.946E+05 10.3174 1.00000
  1.995E+06 1.997E+06 2.958E+00 5.396E-03 1.398E-01 1.726E-01 3.178E-01 3.276E+00 6.614E+05 10.5475 1.00000
  2.239E+06 2.240E+06 2.977E+00 6.174E-03 1.604E-01 1.950E-01 3.616E-01 3.339E+00 7.350E+05 10.7776 1.00000
  2.512E+06 2.514E+06 2.996E+00 7.063E-03 1.839E-01 2.204E-01 4.113E-01 3.407E+00 8.160E+05 11.0076 1.00000
  2.818E+06 2.820E+06 3.014E+00 8.077E-03 2.106E-01 2.492E-01 4.679E-01 3.482E+00 9.050E+05 11.2377 1.00000
  3.162E+06 3.164E+06 3.033E+00 9.235E-03 2.409E-01 2.821E-01 5.322E-01 3.565E+00 1.003E+06 11.4679 1.00000
  3.548E+06 3.550E+06 3.051E+00 1.056E-02 2.753E-01 3.194E-01 6.053E-01 3.656E+00 1.109E+06 11.6980 1.00000
  3.981E+06 3.983E+06 3.069E+00 1.206E-02 3.144E-01 3.619E-01 6.883E-01 3.757E+00 1.226E+06 11.9282 1.00000
  4.467E+06 4.469E+06 3.087E+00 1.378E-02 3.586E-01 4.103E-01 7.827E-01 3.869E+00 1.354E+06 12.1583 1.00000
  5.012E+06 5.014E+06 3.104E+00 1.574E-02 4.087E-01 4.654E-01 8.898E-01 3.994E+00 1.492E+06 12.3885 1.00000
  5.623E+06 5.625E+06 3.122E+00 1.798E-02 4.655E-01 5.281E-01 1.012E+00 4.133E+00 1.643E+06 12.6187 1.00000
  6.310E+06 6.311E+06 3.139E+00 2.052E-02 5.297E-01 5.995E-01 1.150E+00 4.289E+00 1.806E+06 12.8489 1.00000
  7.079E+06 7.081E+06 3.156E+00 2.342E-02 6.023E-01 6.808E-01 1.307E+00 4.463E+00 1.982E+06 13.0791 1.00000
  7.943E+06 7.945E+06 3.173E+00 2.672E-02 6.844E-01 7.735E-01 1.485E+00 4.658E+00 2.171E+06 13.3093 1.00000
  8.913E+06 8.914E+06 3.190E+00 3.048E-02 7.770E-01 8.792E-01 1.687E+00 4.877E+00 2.375E+06 13.5395 1.00000
  1.000E+07 1.000E+07 3.206E+00 3.476E-02 8.817E-01 9.996E-01 1.916E+00 5.122E+00 2.592E+06 13.7697 1.00000
  1.122E+07 1.122E+07 3.223E+00 3.963E-02 9.997E-01 1.137E+00 2.176E+00 5.399E+00 2.825E+06 13.9999 1.00000
  1.259E+07 1.259E+07 3.239E+00 4.517E-02 1.133E+00 1.293E+00 2.471E+00 5.711E+00 3.071E+06 14.2301 1.00000
  1.413E+07 1.413E+07 3.255E+00 5.148E-02 1.283E+00 1.472E+00 2.806E+00 6.062E+00 3.332E+06 14.4604 1.00000
  1.585E+07 1.585E+07 3.271E+00 5.864E-02 1.452E+00 1.675E+00 3.186E+00 6.458E+00 3.608E+06 14.6906 1.00000
  1.778E+07 1.778E+07 3.287E+00 6.678E-02 1.643E+00 1.908E+00 3.617E+00 6.905E+00 3.898E+06 14.9208 1.00000
  1.995E+07 1.995E+07 3.303E+00 7.604E-02 1.857E+00 2.172E+00 4.106E+00 7.409E+00 4.201E+06 15.1511 1.00000
  2.239E+07 2.239E+07 3.319E+00 8.655E-02 2.099E+00 2.475E+00 4.660E+00 7.979E+00 4.518E+06 15.3813 1.00000
  2.512E+07 2.512E+07 3.335E+00 9.849E-02 2.371E+00 2.819E+00 5.289E+00 8.624E+00 4.848E+06 15.6115 1.00000
  2.818E+07 2.819E+07 3.350E+00 1.120E-01 2.677E+00 3.213E+00 6.002E+00 9.352E+00 5.189E+06 15.8418 1.00000
  3.162E+07 3.162E+07 3.366E+00 1.274E-01 3.022E+00 3.662E+00 6.811E+00 1.018E+01 5.542E+06 16.0720 1.00000
  3.548E+07 3.548E+07 3.381E+00 1.449E-01 3.409E+00 4.174E+00 7.728E+00 1.111E+01 5.905E+06 16.3023 1.00000
  3.981E+07 3.981E+07 3.397E+00 1.647E-01 3.844E+00 4.759E+00 8.768E+00 1.216E+01 6.278E+06 16.5325 1.00000
  4.467E+07 4.467E+07 3.412E+00 1.871E-01 4.334E+00 5.426E+00 9.947E+00 1.336E+01 6.660E+06 16.7628 1.00000
  5.012E+07 5.012E+07 3.428E+00 2.125E-01 4.884E+00 6.188E+00 1.128E+01 1.471E+01 7.049E+06 16.9930 1.00000
  5.623E+07 5.624E+07 3.443E+00 2.414E-01 5.503E+00 7.058E+00 1.280E+01 1.624E+01 7.445E+06 17.2233 1.00000
  6.310E+07 6.310E+07 3.458E+00 2.740E-01 6.198E+00 8.051E+00 1.452E+01 1.798E+01 7.847E+06 17.4535 1.00000
  7.079E+07 7.080E+07 3.474E+00 3.110E-01 6.979E+00 9.184E+00 1.647E+01 1.995E+01 8.254E+06 17.6838 1.00000
  7.943E+07 7.943E+07 3.489E+00 3.529E-01 7.856E+00 1.048E+01 1.869E+01 2.218E+01 8.665E+06 17.9140 1.00000
  8.913E+07 8.913E+07 3.505E+00 4.003E-01 8.841E+00 1.196E+01 2.120E+01 2.470E+01 9.080E+06 18.1443 1.00000
  1.000E+08 1.000E+08 3.520E+00 4.539E-01 9.948E+00 1.365E+01 2.405E+01 2.757E+01 9.497E+06 18.3745 1.00000
  1.122E+08 1.122E+08 3.536E+00 5.146E-01 1.119E+01 1.557E+01 2.728E+01 3.081E+01 9.917E+06 18.6048 1.00000
  1.259E+08 1.259E+08 3.551E+00 5.832E-01 1.259E+01 1.777E+01 3.094E+01 3.450E+01 1.034E+07 18.8350 1.00000
  1.413E+08 1.413E+08 3.567E+00 6.608E-01 1.415E+01 2.029E+01 3.510E+01 3.867E+01 1.076E+07 19.0653 1.00000
  1.585E+08 1.585E+08 3.583E+00 7.485E-01 1.591E+01 2.316E+01 3.982E+01 4.340E+01 1.118E+07 19.2956 1.00000
  1.778E+08 1.778E+08 3.598E+00 8.476E-01 1.789E+01 2.644E+01 4.518E+01 4.878E+01 1.160E+07 19.5258 1.00000
  1.995E+08 1.995E+08 3.614E+00 9.595E-01 2.010E+01 3.019E+01 5.126E+01 5.487E+01 1.202E+07 19.7561 1.00000
  2.239E+08 2.239E+08 3.630E+00 1.086E+00 2.259E+01 3.447E+01 5.815E+01 6.178E+01 1.244E+07 19.9863 1.00000
  2.512E+08 2.512E+08 3.646E+00 1.229E+00 2.539E+01 3.937E+01 6.598E+01 6.963E+01 1.286E+07 20.2166 1.00000
  2.818E+08 2.818E+08 3.662E+00 1.390E+00 2.852E+01 4.496E+01 7.487E+01 7.853E+01 1.327E+07 20.4468 1.00000
  3.162E+08 3.162E+08 3.678E+00 1.571E+00 3.204E+01 5.134E+01 8.496E+01 8.863E+01 1.369E+07 20.6771 1.00000
  3.548E+08 3.548E+08 3.694E+00 1.776E+00 3.599E+01 5.864E+01 9.641E+01 1.001E+02 1.410E+07 20.9074 1.00000
  3.981E+08 3.981E+08 3.710E+00 2.008E+00 4.043E+01 6.698E+01 1.094E+02 1.131E+02 1.450E+07 21.1376 1.00000
  4.467E+08 4.467E+08 3.726E+00 2.268E+00 4.540E+01 7.651E+01 1.242E+02 1.279E+02 1.491E+07 21.3679 1.00000
  5.012E+08 5.012E+08 3.743E+00 2.562E+00 5.099E+01 8.740E+01 1.410E+02 1.447E+02 1.531E+07 21.5981 1.00000
  5.623E+08 5.623E+08 3.759E+00 2.893E+00 5.725E+01 9.985E+01 1.600E+02 1.638E+02 1.571E+07 21.8284 1.00000
  6.310E+08 6.310E+08 3.775E+00 3.266E+00 6.429E+01 1.141E+02 1.816E+02 1.854E+02 1.610E+07 22.0586 1.00000
  7.079E+08 7.079E+08 3.792E+00 3.687E+00 7.218E+01 1.303E+02 2.062E+02 2.100E+02 1.649E+07 22.2889 1.00000
  7.943E+08 7.943E+08 3.809E+00 4.160E+00 8.104E+01 1.489E+02 2.341E+02 2.379E+02 1.688E+07 22.5192 1.00000
  8.913E+08 8.913E+08 3.825E+00 4.694E+00 9.097E+01 1.702E+02 2.659E+02 2.697E+02 1.726E+07 22.7494 1.00000
  1.000E+09 1.000E+09 3.842E+00 5.294E+00 1.021E+02 1.945E+02 3.019E+02 3.057E+02 1.764E+07 22.9797 1.00000
  1.122E+09 1.122E+09 3.859E+00 5.970E+00 1.146E+02 2.223E+02 3.429E+02 3.467E+02 1.802E+07 23.2099 1.00000
  1.259E+09 1.259E+09 3.876E+00 6.731E+00 1.287E+02 2.540E+02 3.894E+02 3.933E+02 1.839E+07 23.4402 1.00000
  1.413E+09 1.413E+09 3.893E+00 7.587E+00 1.444E+02 2.903E+02 4.424E+02 4.463E+02 1.876E+07 23.6704 1.00000
  1.585E+09 1.585E+09 3.910E+00 8.550E+00 1.621E+02 3.319E+02 5.025E+02 5.064E+02 1.912E+07 23.9007 1.00000
  1.778E+09 1.778E+09 3.928E+00 9.633E+00 1.820E+02 3.793E+02 5.709E+02 5.749E+02 1.948E+07 24.1310 1.00000
  1.995E+09 1.995E+09 3.945E+00 1.085E+01 2.042E+02 4.336E+02 6.487E+02 6.527E+02 1.983E+07 24.3612 1.00000
  2.239E+09 2.239E+09 3.963E+00 1.222E+01 2.292E+02 4.957E+02 7.372E+02 7.411E+02 2.019E+07 24.5915 1.00000
  2.512E+09 2.512E+09 3.980E+00 1.376E+01 2.572E+02 5.668E+02 8.377E+02 8.417E+02 2.053E+07 24.8217 1.00000
  2.818E+09 2.818E+09 3.998E+00 1.549E+01 2.887E+02 6.480E+02 9.522E+02 9.562E+02 2.087E+07 25.0520 1.00000
  3.162E+09 3.162E+09 4.016E+00 1.744E+01 3.240E+02 7.409E+02 1.082E+03 1.086E+03 2.121E+07 25.2823 1.00000
  3.548E+09 3.548E+09 4.033E+00 1.963E+01 3.636E+02 8.472E+02 1.230E+03 1.234E+03 2.155E+07 25.5125 1.00000
  3.981E+09 3.981E+09 4.051E+00 2.208E+01 4.080E+02 9.688E+02 1.399E+03 1.403E+03 2.188E+07 25.7428 1.00000
  4.467E+09 4.467E+09 4.069E+00 2.485E+01 4.578E+02 1.108E+03 1.591E+03 1.595E+03 2.220E+07 25.9730 1.00000
  5.012E+09 5.012E+09 4.088E+00 2.795E+01 5.138E+02 1.267E+03 1.809E+03 1.813E+03 2.252E+07 26.2033 1.00000
  5.623E+09 5.623E+09 4.106E+00 3.144E+01 5.765E+02 1.449E+03 2.057E+03 2.061E+03 2.284E+07 26.4335 1.00000
  6.310E+09 6.310E+09 4.124E+00 3.535E+01 6.469E+02 1.657E+03 2.340E+03 2.344E+03 2.315E+07 26.6638 1.00000
  7.079E+09 7.079E+09 4.143E+00 3.975E+01 7.259E+02 1.896E+03 2.661E+03 2.665E+03 2.346E+07 26.8941 1.00000
  7.943E+09 7.943E+09 4.161E+00 4.469E+01 8.146E+02 2.168E+03 3.028E+03 3.032E+03 2.377E+07 27.1243 1.00000
  8.913E+09 8.913E+09 4.180E+00 5.024E+01 9.140E+02 2.480E+03 3.445E+03 3.449E+03 2.407E+07 27.3546 1.00000
  1.000E+10 1.000E+10 4.199E+00 5.647E+01 1.026E+03 2.838E+03 3.920E+03 3.924E+03 2.436E+07 27.5848 1.00000
  1.122E+10 1.122E+10 4.218E+00 6.347E+01 1.151E+03 3.246E+03 4.461E+03 4.465E+03 2.465E+07 27.8151 1.00000
  1.259E+10 1.259E+10 4.237E+00 7.133E+01 1.291E+03 3.714E+03 5.077E+03 5.081E+03 2.494E+07 28.0454 1.00000
  1.413E+10 1.413E+10 4.256E+00 8.015E+01 1.449E+03 4.250E+03 5.779E+03 5.783E+03 2.523E+07 28.2756 1.00000
  1.585E+10 1.585E+10 4.275E+00 9.005E+01 1.626E+03 4.863E+03 6.578E+03 6.583E+03 2.551E+07 28.5059 1.00000
  1.778E+10 1.778E+10 4.294E+00 1.012E+02 1.824E+03 5.564E+03 7.489E+03 7.494E+03 2.578E+07 28.7361 1.00000
  1.995E+10 1.995E+10 4.314E+00 1.137E+02 2.047E+03 6.367E+03 8.528E+03 8.532E+03 2.605E+07 28.9664 1.00000
  2.239E+10 2.239E+10 4.333E+00 1.277E+02 2.297E+03 7.287E+03 9.711E+03 9.715E+03 2.632E+07 29.1967 1.00000
  2.512E+10 2.512E+10 4.353E+00 1.434E+02 2.577E+03 8.339E+03 1.106E+04 1.106E+04 2.659E+07 29.4269 1.00000
  2.818E+10 2.818E+10 4.373E+00 1.610E+02 2.891E+03 9.545E+03 1.260E+04 1.260E+04 2.685E+07 29.6572 1.00000
  3.162E+10 3.162E+10 4.393E+00 1.809E+02 3.244E+03 1.092E+04 1.435E+04 1.435E+04 2.710E+07 29.8874 1.00000
  3.548E+10 3.548E+10 4.413E+00 2.031E+02 3.640E+03 1.251E+04 1.635E+04 1.635E+04 2.736E+07 30.1177 1.00000
  3.981E+10 3.981E+10 4.433E+00 2.281E+02 4.084E+03 1.431E+04 1.863E+04 1.863E+04 2.760E+07 30.3479 1.00000
  4.467E+10 4.467E+10 4.453E+00 2.561E+02 4.583E+03 1.639E+04 2.123E+04 2.123E+04 2.785E+07 30.5782 1.00000
  5.012E+10 5.012E+10 4.473E+00 2.875E+02 5.142E+03 1.876E+04 2.419E+04 2.419E+04 2.809E+07 30.8085 1.00000
  5.623E+10 5.623E+10 4.494E+00 3.228E+02 5.769E+03 2.148E+04 2.757E+04 2.757E+04 2.833E+07 31.0387 1.00000
  6.310E+10 6.310E+10 4.514E+00 3.624E+02 6.473E+03 2.459E+04 3.143E+04 3.143E+04 2.856E+07 31.2690 1.00000
  7.079E+10 7.079E+10 4.535E+00 4.068E+02 7.263E+03 2.816E+04 3.583E+04 3.583E+04 2.879E+07 31.4992 1.00000
  7.943E+10 7.943E+10 4.556E+00 4.567E+02 8.149E+03 3.224E+04 4.085E+04 4.085E+04 2.902E+07 31.7295 1.00000
  8.913E+10 8.913E+10 4.577E+00 5.127E+02 9.143E+03 3.692E+04 4.658E+04 4.658E+04 2.924E+07 31.9598 1.00000
  1.000E+11 1.000E+11 4.598E+00 5.755E+02 1.026E+04 4.228E+04 5.312E+04 5.312E+04 2.946E+07 32.1900 1.00000
  1.122E+11 1.122E+11 4.619E+00 6.459E+02 1.151E+04 4.842E+04 6.058E+04 6.058E+04 2.967E+07 32.4203 1.00000
  1.259E+11 1.259E+11 4.640E+00 7.250E+02 1.291E+04 5.546E+04 6.910E+04 6.910E+04 2.989E+07 32.6505 1.00000
  1.413E+11 1.413E+11 4.661E+00 8.137E+02 1.449E+04 6.352E+04 7.882E+04 7.883E+04 3.009E+07 32.8808 1.00000
  1.585E+11 1.585E+11 4.683E+00 9.133E+02 1.626E+04 7.276E+04 8.993E+04 8.993E+04 3.030E+07 33.1110 1.00000
  1.778E+11 1.778E+11 4.705E+00 1.025E+03 1.824E+04 8.334E+04 1.026E+05 1.026E+05 3.050E+07 33.3413 1.00000
  1.995E+11 1.995E+11 4.726E+00 1.150E+03 2.047E+04 9.547E+04 1.171E+05 1.171E+05 3.070E+07 33.5716 1.00000
  2.239E+11 2.239E+11 4.748E+00 1.291E+03 2.296E+04 1.094E+05 1.336E+05 1.336E+05 3.089E+07 33.8018 1.00000
  2.512E+11 2.512E+11 4.770E+00 1.449E+03 2.576E+04 1.253E+05 1.525E+05 1.525E+05 3.109E+07 34.0321 1.00000
  2.818E+11 2.818E+11 4.792E+00 1.626E+03 2.891E+04 1.436E+05 1.741E+05 1.741E+05 3.127E+07 34.2623 1.00000
  3.162E+11 3.162E+11 4.815E+00 1.825E+03 3.243E+04 1.645E+05 1.987E+05 1.988E+05 3.146E+07 34.4926 1.00000
  3.548E+11 3.548E+11 4.837E+00 2.048E+03 3.639E+04 1.885E+05 2.269E+05 2.269E+05 3.164E+07 34.7229 1.00000
  3.981E+11 3.981E+11 4.859E+00 2.298E+03 4.083E+04 2.160E+05 2.591E+05 2.591E+05 3.182E+07 34.9531 1.00000
  4.467E+11 4.467E+11 4.882E+00 2.579E+03 4.581E+04 2.475E+05 2.959E+05 2.959E+05 3.200E+07 35.1834 1.00000
  5.012E+11 5.012E+11 4.905E+00 2.894E+03 5.139E+04 2.836E+05 3.379E+05 3.379E+05 3.217E+07 35.4136 1.00000
  5.623E+11 5.623E+11 4.928E+00 3.247E+03 5.766E+04 3.251E+05 3.860E+05 3.860E+05 3.234E+07 35.6439 1.00000
  6.310E+11 6.310E+11 4.951E+00 3.644E+03 6.470E+04 3.726E+05 4.409E+05 4.409E+05 3.251E+07 35.8741 1.00000
  7.079E+11 7.079E+11 4.974E+00 4.089E+03 7.259E+04 4.271E+05 5.037E+05 5.037E+05 3.267E+07 36.1044 1.00000
  7.943E+11 7.943E+11 4.997E+00 4.588E+03 8.144E+04 4.895E+05 5.755E+05 5.755E+05 3.283E+07 36.3347 1.00000
  8.913E+11 8.913E+11 5.020E+00 5.148E+03 9.138E+04 5.611E+05 6.577E+05 6.577E+05 3.299E+07 36.5649 1.00000
  1.000E+12 1.000E+12 5.044E+00 5.777E+03 1.025E+05 6.433E+05 7.516E+05 7.516E+05 3.314E+07 36.7952 1.00000
  1.122E+12 1.122E+12 5.068E+00 6.482E+03 1.150E+05 7.375E+05 8.590E+05 8.590E+05 3.330E+07 37.0254 1.00000
  1.259E+12 1.259E+12 5.091E+00 7.273E+03 1.291E+05 8.455E+05 9.818E+05 9.818E+05 3.345E+07 37.2557 1.00000
  1.413E+12 1.413E+12 5.115E+00 8.161E+03 1.448E+05 9.694E+05 1.122E+06 1.122E+06 3.359E+07 37.4860 1.00000
  1.585E+12 1.585E+12 5.139E+00 9.158E+03 1.625E+05 1.112E+06 1.283E+06 1.283E+06 3.374E+07 37.7162 1.00000
  1.778E+12 1.778E+12 5.163E+00 1.028E+04 1.823E+05 1.275E+06 1.467E+06 1.467E+06 3.388E+07 37.9465 1.00000
  1.995E+12 1.995E+12 5.188E+00 1.153E+04 2.045E+05 1.462E+06 1.678E+06 1.678E+06 3.402E+07 38.1767 1.00000
  2.239E+12 2.239E+12 5.212E+00 1.294E+04 2.295E+05 1.676E+06 1.918E+06 1.918E+06 3.415E+07 38.4070 1.00000
  2.512E+12 2.512E+12 5.237E+00 1.452E+04 2.574E+05 1.922E+06 2.194E+06 2.194E+06 3.429E+07 38.6372 1.00000
  2.818E+12 2.818E+12 5.262E+00 1.629E+04 2.888E+05 2.204E+06 2.510E+06 2.510E+06 3.442E+07 38.8675 1.00000
  3.162E+12 3.162E+12 5.286E+00 1.828E+04 3.241E+05 2.528E+06 2.871E+06 2.871E+06 3.454E+07 39.0978 1.00000
  3.548E+12 3.548E+12 5.311E+00 2.051E+04 3.636E+05 2.900E+06 3.284E+06 3.284E+06 3.467E+07 39.3280 1.00000
  3.981E+12 3.981E+12 5.337E+00 2.301E+04 4.080E+05 3.327E+06 3.758E+06 3.758E+06 3.479E+07 39.5583 1.00000
  4.467E+12 4.467E+12 5.362E+00 2.582E+04 4.577E+05 3.816E+06 4.300E+06 4.300E+06 3.492E+07 39.7885 1.00000
  5.012E+12 5.012E+12 5.387E+00 2.897E+04 5.135E+05 4.378E+06 4.920E+06 4.920E+06 3.503E+07 40.0188 1.00000
  5.623E+12 5.623E+12 5.413E+00 3.250E+04 5.762E+05 5.022E+06 5.631E+06 5.631E+06 3.515E+07 40.2491 1.00000
  6.310E+12 6.310E+12 5.438E+00 3.647E+04 6.464E+05 5.762E+06 6.445E+06 6.445E+06 3.526E+07 40.4793 1.00000
  7.079E+12 7.079E+12 5.464E+00 4.092E+04 7.253E+05 6.611E+06 7.377E+06 7.377E+06 3.538E+07 40.7096 1.00000
  7.943E+12 7.943E+12 5.490E+00 4.591E+04 8.138E+05 7.586E+06 8.445E+06 8.445E+06 3.549E+07 40.9398 1.00000
  8.913E+12 8.913E+12 5.516E+00 5.151E+04 9.130E+05 8.704E+06 9.669E+06 9.669E+06 3.559E+07 41.1701 1.00000
  1.000E+13 1.000E+13 5.543E+00 5.780E+04 1.024E+06 9.988E+06 1.107E+07 1.107E+07 3.570E+07 41.4004 1.00000
  1.122E+13 1.122E+13 5.569E+00 6.485E+04 1.149E+06 1.146E+07 1.268E+07 1.268E+07 3.580E+07 41.6306 1.00000
  1.259E+13 1.259E+13 5.595E+00 7.277E+04 1.289E+06 1.315E+07 1.452E+07 1.452E+07 3.590E+07 41.8609 1.00000
  1.413E+13 1.413E+13 5.622E+00 8.165E+04 1.447E+06 1.510E+07 1.663E+07 1.663E+07 3.600E+07 42.0911 1.00000
  1.585E+13 1.585E+13 5.649E+00 9.161E+04 1.623E+06 1.733E+07 1.904E+07 1.904E+07 3.610E+07 42.3214 1.00000
  1.778E+13 1.778E+13 5.676E+00 1.028E+05 1.821E+06 1.989E+07 2.181E+07 2.181E+07 3.619E+07 42.5516 1.00000
  1.995E+13 1.995E+13 5.703E+00 1.153E+05 2.043E+06 2.283E+07 2.499E+07 2.499E+07 3.629E+07 42.7819 1.00000
  2.239E+13 2.239E+13 5.730E+00 1.294E+05 2.292E+06 2.621E+07 2.863E+07 2.863E+07 3.638E+07 43.0122 1.00000
  2.512E+13 2.512E+13 5.758E+00 1.452E+05 2.572E+06 3.008E+07 3.280E+07 3.280E+07 3.647E+07 43.2424 1.00000
  2.818E+13 2.818E+13 5.785E+00 1.629E+05 2.886E+06 3.454E+07 3.758E+07 3.758E+07 3.656E+07 43.4727 1.00000
  3.162E+13 3.162E+13 5.813E+00 1.828E+05 3.238E+06 3.965E+07 4.307E+07 4.307E+07 3.664E+07 43.7029 1.00000
  3.548E+13 3.548E+13 5.841E+00 2.051E+05 3.632E+06 4.552E+07 4.936E+07 4.936E+07 3.673E+07 43.9332 1.00000
  3.981E+13 3.981E+13 5.869E+00 2.301E+05 4.075E+06 5.227E+07 5.657E+07 5.657E+07 3.681E+07 44.1635 1.00000
  4.467E+13 4.467E+13 5.897E+00 2.582E+05 4.572E+06 6.002E+07 6.485E+07 6.485E+07 3.689E+07 44.3937 1.00000
  5.012E+13 5.012E+13 5.925E+00 2.897E+05 5.130E+06 6.892E+07 7.434E+07 7.434E+07 3.697E+07 44.6240 1.00000
  5.623E+13 5.623E+13 5.954E+00 3.251E+05 5.756E+06 7.914E+07 8.522E+07 8.522E+07 3.704E+07 44.8542 1.00000
  6.310E+13 6.310E+13 5.982E+00 3.647E+05 6.458E+06 9.088E+07 9.770E+07 9.770E+07 3.712E+07 45.0845 1.00000
  7.079E+13 7.079E+13 6.011E+00 4.092E+05 7.245E+06 1.044E+08 1.120E+08 1.120E+08 3.719E+07 45.3147 1.00000
  7.943E+13 7.943E+13 6.040E+00 4.592E+05 8.129E+06 1.199E+08 1.285E+08 1.285E+08 3.726E+07 45.5450 1.00000
  8.913E+13 8.913E+13 6.069E+00 5.152E+05 9.120E+06 1.377E+08 1.473E+08 1.473E+08 3.734E+07 45.7753 1.00000
